* Measurement data measured by REW V5.31.1
* Source: EXCL: Micr√≥fono (Realtek(R) Audio), MICROPHONE (Volumen general), L, volume: 0,900. Timing signal peak level -11,8 dBFS, measurement signal peak level -10,8 dBFS
* Format: 512k Log Swept Sine, 1 sweep at -12,0 dBFS using an acoustic timing reference
* Dated: 29/09/2024 09:23:48 PM
* REW Settings:
*  C-weighting compensation: Off
*  Target level: 75.0 dB
* Note: Delay -0,0328 ms (-11 mm, -0,44 in) using estimated IR delay relative to Acoustic reference played from HEADPHONE R with no timing offset Clock adjustment: 20,1 ppm
* Measurement: V13
* Smoothing: None
* Frequency Step: 1/48 octave
* Start Frequency: 20.000 Hz
*
* Freq(Hz)	SPL(dB)	Phase(degrees)
20.000000	88.627	84.1839
20.299999	88.681	83.9045
20.600000	88.778	83.7244
20.900000	88.919	83.4435
21.200001	89.085	82.8920
21.400000	89.192	82.3553
21.799999	89.374	80.9827
22.000000	89.441	80.2255
22.400000	89.527	78.7618
22.700001	89.564	77.8094
23.000000	89.596	77.0029
23.299999	89.633	76.2876
23.600000	89.676	75.6077
24.000000	89.736	74.7019
24.299999	89.780	74.0308
24.700001	89.834	73.1956
25.000000	89.880	72.6275
25.400000	89.956	71.9012
25.799999	90.048	71.1023
26.200001	90.138	70.1708
26.500000	90.194	69.4253
26.900000	90.246	68.4828
27.200001	90.276	67.8919
27.600000	90.323	67.2865
28.000000	90.397	66.7942
28.500000	90.525	66.1026
29.000000	90.658	65.2000
29.500000	90.769	64.1893
30.000000	90.862	63.2004
30.400000	90.928	62.4127
30.700001	90.971	61.7973
31.100000	91.008	60.9602
31.500000	91.019	60.1910
32.000000	91.007	59.4918
32.500000	91.008	59.1124
33.000000	91.048	58.8298
33.500000	91.113	58.4154
34.000000	91.174	57.8691
34.500000	91.225	57.3520
35.000000	91.288	56.9214
35.500000	91.379	56.4432
36.000000	91.482	55.7560
36.500000	91.568	54.8605
37.000000	91.613	53.9416
37.500000	91.625	53.2240
38.200001	91.648	52.7089
38.700001	91.705	52.4810
39.500000	91.824	51.7581
40.000000	91.862	51.1440
40.599998	91.866	50.5581
41.200001	91.870	50.1986
41.799999	91.891	49.8629
42.500000	91.925	49.3701
43.099998	91.963	48.8169
43.700001	91.990	48.0699
44.400002	91.981	47.2538
45.000000	91.987	46.9283
45.500000	92.047	46.6987
46.200001	92.165	45.9136
46.799999	92.204	45.0445
47.500000	92.197	44.5794
48.200001	92.238	44.5966
48.700001	92.299	44.5435
49.400002	92.370	44.2017
50.000000	92.384	43.8199
50.799999	92.364	43.5439
51.500000	92.381	43.2822
52.200001	92.386	42.5529
53.000000	92.343	41.8625
53.799999	92.419	41.1251
54.500000	92.441	39.7166
55.200001	92.375	39.5005
56.000000	92.673	40.0763
57.000000	92.880	37.4752
58.000000	92.881	41.4258
59.000000	94.282	40.1607
60.000000	93.907	30.9576
60.799999	92.802	33.3518
61.500000	92.892	37.9837
62.200001	93.106	37.6638
63.000000	92.852	37.3452
64.000000	92.849	38.3570
65.000000	92.824	36.9020
66.000000	92.767	36.2752
67.000000	92.818	35.2753
68.000000	92.866	34.5570
69.000000	92.896	34.1168
70.000000	92.957	34.3820
71.000000	93.032	34.1027
72.000000	92.990	34.0892
73.000000	93.023	34.1184
74.000000	93.010	33.4225
75.000000	92.959	33.1273
76.199997	93.013	32.7005
77.500000	93.061	32.0495
78.800003	93.086	31.5737
80.000000	93.119	31.8611
81.199997	93.212	31.3931
82.500000	93.152	30.9559
83.800003	93.139	30.7289
85.000000	93.129	30.4910
86.199997	93.159	30.1582
87.500000	93.174	29.7873
88.500000	93.194	29.6790
90.000000	93.248	29.3367
91.199997	93.225	29.0374
92.500000	93.235	29.0696
93.800003	93.257	28.8075
95.000000	93.281	28.5100
96.199997	93.261	28.1456
97.500000	93.273	28.2094
98.800003	93.294	27.9713
100.000000	93.325	27.9646
101.500000	93.350	27.4485
103.000000	93.331	27.2045
104.400002	93.340	27.1558
106.000000	93.364	26.9517
107.500000	93.380	26.6346
109.000000	93.366	26.7850
110.599998	93.413	26.6866
112.000000	93.437	26.2841
113.800003	93.422	26.1396
115.000000	93.443	25.8428
117.199997	93.484	25.8656
118.000000	93.447	25.8220
120.599998	93.593	25.5267
122.000000	93.507	25.5024
124.099998	93.488	25.1382
125.000000	93.482	24.7952
126.500000	93.452	25.0425
128.000000	93.527	24.8467
131.500000	93.551	24.7239
132.000000	93.552	24.6396
134.000000	93.532	24.6871
136.000000	93.537	24.3783
138.000000	93.586	24.0566
140.000000	93.577	24.2211
143.000000	93.660	24.0724
145.000000	93.597	23.8605
147.500000	93.595	23.9087
150.000000	93.645	23.6178
152.500000	93.630	23.5072
155.000000	93.660	23.5909
157.500000	93.680	23.4170
160.000000	93.696	23.4362
162.500000	93.631	23.4989
165.000000	93.690	23.2452
167.500000	93.700	23.2547
170.000000	93.703	23.3433
172.500000	93.725	23.1034
175.000000	93.749	22.8109
177.500000	93.668	22.8641
180.000000	93.824	22.8084
182.500000	93.749	22.4805
185.000000	93.772	22.5538
187.500000	93.785	22.4302
190.000000	93.779	23.0791
192.500000	93.801	22.7476
195.000000	93.796	23.0172
197.500000	93.824	22.7542
200.000000	93.819	22.7185
203.000000	93.808	22.8248
206.000000	93.833	22.5635
209.000000	93.889	21.9656
212.000000	93.827	22.1663
214.000000	93.808	22.5854
218.000000	93.778	22.7567
220.000000	93.747	23.0635
224.000000	93.778	23.2705
227.000000	93.789	23.2787
230.000000	93.901	23.8397
233.000000	93.938	23.5463
236.000000	93.968	24.0634
240.000000	93.983	24.0685
243.000000	93.975	23.9144
247.000000	94.004	23.5847
250.000000	94.007	23.7195
254.000000	94.020	24.0178
258.000000	94.037	24.0919
262.000000	94.048	24.0405
265.000000	94.043	23.9578
269.000000	94.099	24.2907
272.000000	94.134	24.0981
276.000000	94.171	24.5026
280.000000	94.265	24.2236
285.000000	94.176	24.1851
290.000000	94.236	24.5762
295.000000	94.220	24.1371
300.000000	94.393	24.0216
304.000000	94.303	24.5107
307.000000	94.331	24.5427
311.000000	94.361	24.7192
315.000000	94.291	24.8513
320.000000	94.331	24.7816
325.000000	94.396	24.9854
330.000000	94.403	24.8817
335.000000	94.420	24.9689
340.000000	94.477	25.3589
345.000000	94.462	25.0703
350.000000	94.491	25.2379
355.000000	94.505	25.6165
360.000000	94.498	25.4087
365.000000	94.545	25.3294
370.000000	94.572	25.4283
375.000000	94.584	25.3464
382.000000	94.623	25.7020
387.000000	94.570	25.8170
395.000000	94.614	25.8945
400.000000	94.645	26.2174
406.000000	94.687	26.3104
412.000000	94.735	26.2805
418.000000	94.704	26.6205
425.000000	94.756	26.6014
431.000000	94.756	26.8792
437.000000	94.798	26.8309
444.000000	94.791	26.7251
450.000000	94.831	26.9584
455.000000	94.829	26.9869
462.000000	94.854	27.0239
468.000000	94.857	27.1628
475.000000	94.868	26.8185
482.000000	94.901	27.3229
487.000000	94.887	27.3008
494.000000	94.909	27.4407
500.000000	94.909	27.3584
508.000000	94.949	27.6738
515.000000	94.933	27.7576
522.000000	94.950	27.6090
530.000000	94.939	27.8781
538.000000	94.931	28.0722
545.000000	94.919	28.1722
552.000000	94.941	28.3279
560.000000	94.894	28.5664
570.000000	94.898	28.6849
580.000000	94.855	29.0239
590.000000	94.838	28.9575
600.000000	94.801	29.4641
608.000000	94.816	29.8936
615.000000	94.797	29.9362
622.000000	94.800	30.1510
630.000000	94.772	30.4456
640.000000	94.722	30.6673
650.000000	94.716	31.3296
660.000000	94.670	31.8672
670.000000	94.626	32.5546
680.000000	94.630	33.2013
690.000000	94.548	33.6677
700.000000	94.522	34.4740
710.000000	94.507	35.3130
720.000000	94.493	36.1364
730.000000	94.438	36.9165
740.000000	94.441	37.6031
750.000000	94.454	38.6622
762.000000	94.473	40.2020
775.000000	94.469	41.1872
788.000000	94.505	42.4989
800.000000	94.591	43.8062
812.000000	94.649	45.0781
825.000000	94.725	46.5624
838.000000	94.843	47.8115
850.000000	94.896	48.8820
862.000000	95.042	50.1571
875.000000	95.182	51.4155
885.000000	95.276	52.1081
900.000000	95.468	53.4051
912.000000	95.618	54.4592
925.000000	95.774	55.6653
938.000000	95.932	56.5070
950.000000	96.091	57.5157
962.000000	96.305	58.2270
975.000000	96.453	59.1364
988.000000	96.653	59.9553
1000.000000	96.824	60.9042
1015.000000	97.099	61.6399
1030.000000	97.340	62.3940
1044.000000	97.581	63.1775
1060.000000	97.904	63.7061
1075.000000	98.250	64.0558
1090.000000	98.554	64.2034
1106.000000	98.913	64.0359
1120.000000	99.175	63.7811
1138.000000	99.490	63.0461
1150.000000	99.713	62.4562
1172.000000	100.007	61.2845
1180.000000	100.112	60.7448
1206.000000	100.393	59.3234
1220.000000	100.491	58.4161
1241.000000	100.658	57.4854
1250.000000	100.716	57.0098
1265.000000	100.777	56.3925
1280.000000	100.884	55.7095
1315.000000	101.029	54.5654
1320.000000	101.044	54.2536
1340.000000	101.113	53.8076
1360.000000	101.194	53.4406
1380.000000	101.241	52.8948
1400.000000	101.305	52.6555
1430.000000	101.395	52.2091
1450.000000	101.432	51.8905
1475.000000	101.517	51.6179
1500.000000	101.607	51.5488
1525.000000	101.680	51.3892
1550.000000	101.750	51.2390
1575.000000	101.858	51.1602
1600.000000	101.940	51.1519
1625.000000	102.033	51.2039
1650.000000	102.134	51.3819
1675.000000	102.220	51.4280
1700.000000	102.333	51.3842
1725.000000	102.432	51.4313
1750.000000	102.552	51.4814
1775.000000	102.678	51.6427
1800.000000	102.788	51.7188
1825.000000	102.932	51.7338
1850.000000	103.056	51.7321
1875.000000	103.204	51.6997
1900.000000	103.353	51.7070
1925.000000	103.502	51.7112
1950.000000	103.658	51.6798
1975.000000	103.810	51.5803
2000.000000	103.968	51.3496
2030.000000	104.175	51.2847
2060.000000	104.370	50.9543
2090.000000	104.582	50.6773
2120.000000	104.809	50.2757
2140.000000	104.954	49.9839
2180.000000	105.247	49.1995
2200.000000	105.388	48.8425
2240.000000	105.706	47.7960
2270.000000	105.924	46.9038
2300.000000	106.144	46.0008
2330.000000	106.363	44.9360
2360.000000	106.570	43.6572
2400.000000	106.842	41.9036
2430.000000	107.040	40.4799
2470.000000	107.265	38.3573
2500.000000	107.423	36.6495
2540.000000	107.599	34.2651
2580.000000	107.714	31.7301
2620.000000	107.819	29.1000
2650.000000	107.849	27.2199
2690.000000	107.845	24.5466
2720.000000	107.808	22.6497
2760.000000	107.729	20.1986
2800.000000	107.622	17.8093
2850.000000	107.419	15.1351
2900.000000	107.175	12.7371
2950.000000	106.905	10.6534
3000.000000	106.608	8.9193
3040.000000	106.355	7.7983
3070.000000	106.167	7.0454
3110.000000	105.906	6.2637
3150.000000	105.667	5.6338
3200.000000	105.355	5.0947
3250.000000	105.064	4.8959
3300.000000	104.769	4.8389
3350.000000	104.512	5.0825
3400.000000	104.257	5.2871
3450.000000	104.007	5.7389
3500.000000	103.804	6.3891
3550.000000	103.594	7.0848
3600.000000	103.436	7.9315
3650.000000	103.268	8.7375
3700.000000	103.144	9.7462
3750.000000	103.015	10.6808
3820.000000	102.891	12.2190
3870.000000	102.835	13.3807
3950.000000	102.776	15.2162
4000.000000	102.784	16.3273
4060.000000	102.807	17.7417
4120.000000	102.867	19.1298
4180.000000	102.962	20.3631
4250.000000	103.100	21.6911
4310.000000	103.283	22.6900
4370.000000	103.473	23.7217
4440.000000	103.755	24.7548
4500.000000	104.032	25.3455
4550.000000	104.291	25.8508
4620.000000	104.752	25.8147
4680.000000	105.162	25.6286
4750.000000	105.680	24.8465
4820.000000	106.236	23.2010
4870.000000	106.640	21.6320
4940.000000	107.179	18.3184
5000.000000	107.591	14.5243
5080.000000	107.956	8.1855
5150.000000	107.982	2.0692
5220.000000	107.760	-3.4294
5300.000000	107.424	-7.7744
5380.000000	107.280	-12.1026
5450.000000	107.118	-17.2397
5520.000000	106.710	-23.0123
5600.000000	105.932	-28.7094
5700.000000	104.709	-33.6959
5800.000000	103.449	-36.3396
5900.000000	102.220	-36.9526
6000.000000	101.117	-36.6396
6080.000000	100.292	-35.7508
6150.000000	99.667	-34.6363
6220.000000	99.022	-33.3970
6300.000000	98.399	-31.7013
6400.000000	97.666	-28.9951
6500.000000	97.017	-26.5056
6600.000000	96.397	-23.7945
6700.000000	95.800	-20.6157
6800.000000	95.298	-17.3270
6900.000000	94.841	-13.8384
7000.000000	94.436	-10.1443
7100.000000	94.085	-6.5777
7200.000000	93.860	-2.4338
7300.000000	93.605	0.7537
7400.000000	93.381	4.8774
7500.000000	93.258	8.7162
7620.000000	93.364	13.8269
7750.000000	93.367	17.5458
7880.000000	93.350	22.0190
8000.000000	93.362	26.0618
8120.000000	93.701	29.9062
8250.000000	94.236	34.5647
8380.000000	94.562	37.9057
8500.000000	95.036	40.7429
8620.000000	95.667	43.6501
8750.000000	96.530	46.0782
8850.000000	97.416	47.2480
9000.000000	98.924	47.2998
9120.000000	100.433	44.4202
9250.000000	102.243	36.5911
9380.000000	103.831	20.6348
9500.000000	103.972	-0.1041
9620.000000	102.516	-18.1840
9750.000000	100.190	-29.3419
9880.000000	97.991	-34.0309
10000.000000	96.195	-35.1656
10150.000000	94.310	-34.1158
10300.000000	92.671	-31.5707
10440.000000	91.439	-27.8008
10600.000000	90.130	-23.6816
10750.000000	89.257	-19.6078
10900.000000	88.372	-14.5002
11060.000000	87.677	-10.6600
11200.000000	87.046	-6.2148
11380.000000	86.303	-0.0093
11500.000000	86.013	3.7535
11720.000000	85.661	11.2135
11800.000000	85.378	13.0181
12060.000000	85.305	22.0715
12200.000000	85.418	25.9717
12410.000000	85.833	31.9982
12500.000000	85.874	34.3905
12650.000000	86.367	37.6036
12800.000000	87.089	40.0149
13150.000000	89.455	40.3702
13200.000000	89.856	38.7240
13400.000000	91.728	29.3053
13600.000000	92.915	9.4587
13800.000000	91.578	-15.5234
14000.000000	88.671	-30.3546
14300.000000	84.534	-34.8359
14500.000000	82.341	-34.2108
14750.000000	80.023	-31.8105
15000.000000	77.800	-24.8612
15250.000000	76.308	-17.4372
15500.000000	74.974	-9.2986
15750.000000	73.417	-0.9415
16000.000000	73.118	7.1163
16250.000000	71.907	12.8980
16500.000000	72.521	20.3941
16750.000000	71.416	28.5154
17000.000000	71.942	32.7318
17250.000000	73.532	32.6815
17500.000000	73.891	41.8333
17750.000000	74.592	43.5693
18000.000000	75.729	41.5738
18250.000000	77.871	30.0361
18500.000000	77.511	8.8619
18750.000000	72.692	0.2908
19000.000000	77.623	29.7156
19250.000000	78.880	-3.0429
19500.000000	77.511	-22.9796
19750.000000	76.321	-31.8631
